# Pulseq sequence file
# Created by MATLAB mr toolbox

[VERSION]
major 1
minor 4
revision 1

[DEFINITIONS]
AdcRasterTime 1e-07 
BlockDurationRaster 1e-05 
FOV 0.256 0.256 0.003 
GradientRasterTime 1e-05 
MaxAdcSegmentLength 700 
Name four_shot 
RadiofrequencyRasterTime 1e-06 
TotalDuration 0.37151 

# Format of blocks:
# NUM DUR RF  GX  GY  GZ  ADC  EXT
[BLOCKS]
 1 1895   1   0   0   1  0  0
 2 317   2   0   0   2  0  0
 3 8402   0   4   5   3  1  0
 4  95   0   7   7   6  0  0
 5 317   2   0   0   2  0  0
 6 8402   0   4   8   3  1  0
 7  95   0   7   7   6  0  0
 8 317   2   0   0   2  0  0
 9 8402   0   9   8   3  1  0
10  95   0   7   7   6  0  0
11 317   2   0   0   2  0  0
12 8402   0   9   5   3  1  0
13  95   0   7   7   6  0  0

# Format of RF events:
# id amplitude mag_id phase_id time_shape_id delay freq phase
# ..        Hz   ....     ....          ....    us   Hz   rad
[RF]
1      134.648 1 2 0 100 -440.662 0
2      329.152 3 4 0 100 0 0

# Format of arbitrary gradients:
#   time_shape_id of 0 means default timing (stepping with grad_raster starting at 1/2 of grad_raster)
# id amplitude amp_shape_id time_shape_id delay
# ..      Hz/m       ..         ..          us
[GRADIENTS]
4     -53345.5 5 0 870
5      51377.1 6 0 870
7            0 7 8 0
8     -51377.1 6 0 870
9      53345.5 5 0 870

# Format of trapezoid gradients:
# id amplitude rise flat fall delay
# ..      Hz/m   us   us   us    us
[TRAP]
 1       936330 140 10540 140 8130
 2       444444  70 3000  70  30
 3      -934551 140  590 140   0
 6       925926 140  670 140   0

# Format of ADC events:
# id num dwell delay freq phase
# ..  ..    ns    us   Hz   rad
[ADC]
1 8400 10000 10 0 0

# Sequence Shapes
[SHAPES]

shape_id 1
num_samples 8000
5.78160464e-05
5.80988273e-05
5.838292e-05
5.86683303e-05
5.89550639e-05
5.92431266e-05
5.95325242e-05
5.98232625e-05
6.01153473e-05
6.04087845e-05
6.070358e-05
6.09997396e-05
6.12972694e-05
6.15961752e-05
6.18964631e-05
6.2198139e-05
6.2501209e-05
6.28056791e-05
6.31115555e-05
6.34188441e-05
6.37275511e-05
6.40376828e-05
6.43492452e-05
6.46622445e-05
6.4976687e-05
6.52925789e-05
6.56099266e-05
6.59287362e-05
6.62490141e-05
6.65707668e-05
6.68940004e-05
6.72187215e-05
6.75449365e-05
6.78726518e-05
6.82018739e-05
6.85326093e-05
6.88648645e-05
6.91986461e-05
6.95339607e-05
6.98708149e-05
7.02092153e-05
7.05491686e-05
7.08906814e-05
7.12337605e-05
7.15784126e-05
7.19246445e-05
7.2272463e-05
7.26218749e-05
7.2972887e-05
7.33255063e-05
7.36797396e-05
7.40355938e-05
7.4393076e-05
7.47521931e-05
7.51129521e-05
7.547536e-05
7.5839424e-05
7.62051511e-05
7.65725485e-05
7.69416233e-05
7.73123826e-05
7.76848338e-05
7.8058984e-05
7.84348405e-05
7.88124106e-05
7.91917016e-05
7.95727209e-05
7.99554759e-05
8.0339974e-05
8.07262226e-05
8.11142292e-05
8.15040012e-05
8.18955463e-05
8.2288872e-05
8.26839858e-05
8.30808955e-05
8.34796086e-05
8.38801328e-05
8.42824758e-05
8.46866454e-05
8.50926493e-05
8.55004954e-05
8.59101915e-05
8.63217454e-05
8.6735165e-05
8.71504583e-05
8.75676332e-05
8.79866977e-05
8.84076598e-05
8.88305275e-05
8.9255309e-05
8.96820124e-05
9.01106458e-05
9.05412173e-05
9.09737352e-05
9.14082078e-05
9.18446432e-05
9.22830499e-05
9.2723436e-05
9.31658101e-05
9.36101805e-05
9.40565557e-05
9.4504944e-05
9.49553541e-05
9.54077944e-05
9.58622735e-05
9.63188001e-05
9.67773827e-05
9.723803e-05
9.77007507e-05
9.81655536e-05
9.86324474e-05
9.91014409e-05
9.95725429e-05
0.000100045762
0.000100521108
0.000100998589
0.000101478215
0.000101959993
0.000102443934
0.000102930047
0.000103418339
0.000103908822
0.000104401503
0.000104896393
0.000105393499
0.000105892832
0.000106394402
0.000106898216
0.000107404285
0.000107912619
0.000108423226
0.000108936116
0.000109451298
0.000109968783
0.00011048858
0.000111010698
0.000111535148
0.000112061938
0.000112591079
0.000113122581
0.000113656453
0.000114192705
0.000114731348
0.00011527239
0.000115815843
0.000116361716
0.000116910019
0.000117460762
0.000118013956
0.00011856961
0.000119127736
0.000119688342
0.00012025144
0.00012081704
0.000121385152
0.000121955786
0.000122528954
0.000123104665
0.00012368293
0.00012426376
0.000124847166
0.000125433157
0.000126021745
0.00012661294
0.000127206754
0.000127803197
0.000128402279
0.000129004013
0.000129608408
0.000130215476
0.000130825228
0.000131437674
0.000132052827
0.000132670697
0.000133291295
0.000133914633
0.000134540722
0.000135169573
0.000135801197
0.000136435607
0.000137072813
0.000137712827
0.00013835566
0.000139001325
0.000139649832
0.000140301194
0.000140955422
0.000141612528
0.000142272523
0.00014293542
0.000143601231
0.000144269967
0.00014494164
0.000145616263
0.000146293847
0.000146974405
0.000147657948
0.00014834449
0.000149034042
0.000149726617
0.000150422226
0.000151120883
0.000151822599
0.000152527388
0.000153235262
0.000153946233
0.000154660314
0.000155377518
0.000156097857
0.000156821344
0.000157547992
0.000158277815
0.000159010824
0.000159747032
0.000160486454
0.000161229102
0.000161974988
0.000162724127
0.00016347653
0.000164232213
0.000164991187
0.000165753467
0.000166519065
0.000167287996
0.000168060272
0.000168835907
0.000169614915
0.000170397309
0.000171183104
0.000171972312
0.000172764948
0.000173561026
0.000174360559
0.000175163562
0.000175970048
0.000176780032
0.000177593527
0.000178410548
0.000179231109
0.000180055225
0.000180882909
0.000181714176
0.000182549041
0.000183387517
0.00018422962
0.000185075364
0.000185924764
0.000186777834
0.00018763459
0.000188495045
0.000189359215
0.000190227115
0.00019109876
0.000191974164
0.000192853344
0.000193736313
0.000194623087
0.000195513682
0.000196408113
0.000197306395
0.000198208543
0.000199114573
0.000200024501
0.000200938341
0.000201856111
0.000202777825
0.000203703499
0.000204633149
0.000205566791
0.000206504441
0.000207446115
0.000208391828
0.000209341597
0.000210295439
0.000211253369
0.000212215403
0.000213181558
0.000214151851
0.000215126297
0.000216104914
0.000217087718
0.000218074725
0.000219065953
0.000220061417
0.000221061135
0.000222065124
0.000223073401
0.000224085982
0.000225102885
0.000226124127
0.000227149724
0.000228179695
0.000229214057
0.000230252826
0.000231296021
0.000232343659
0.000233395757
0.000234452333
0.000235513405
0.000236578991
0.000237649107
0.000238723773
0.000239803006
0.000240886825
0.000241975246
0.000243068289
0.000244165971
0.000245268311
0.000246375328
0.000247487039
0.000248603462
0.000249724618
0.000250850523
0.000251981198
0.00025311666
0.000254256928
0.000255402021
0.000256551959
0.00025770676
0.000258866443
0.000260031027
0.000261200532
0.000262374976
0.00026355438
0.000264738762
0.000265928142
0.00026712254
0.000268321975
0.000269526467
0.000270736035
0.0002719507
0.000273170481
0.000274395399
0.000275625473
0.000276860723
0.00027810117
0.000279346834
0.000280597735
0.000281853893
0.00028311533
0.000284382065
0.00028565412
0.000286931514
0.000288214269
0.000289502405
0.000290795944
0.000292094906
0.000293399313
0.000294709185
0.000296024543
0.00029734541
0.000298671806
0.000300003753
0.000301341272
0.000302684385
0.000304033113
0.000305387478
0.000306747503
0.000308113208
0.000309484616
0.000310861749
0.000312244629
0.000313633278
0.000315027718
0.000316427973
0.000317834063
0.000319246012
0.000320663842
0.000322087576
0.000323517237
0.000324952847
0.000326394429
0.000327842007
0.000329295603
0.00033075524
0.000332220942
0.000333692732
0.000335170633
0.00033665467
0.000338144864
0.00033964124
0.000341143822
0.000342652634
0.000344167698
0.00034568904
0.000347216683
0.000348750651
0.000350290969
0.000351837661
0.000353390751
0.000354950263
0.000356516223
0.000358088654
0.000359667582
0.000361253031
0.000362845026
0.000364443593
0.000366048755
0.000367660539
0.000369278969
0.00037090407
0.000372535869
0.000374174391
0.00037581966
0.000377471704
0.000379130547
0.000380796215
0.000382468735
0.000384148132
0.000385834432
0.000387527662
0.000389227848
0.000390935016
0.000392649193
0.000394370404
0.000396098678
0.00039783404
0.000399576517
0.000401326137
0.000403082926
0.000404846911
0.00040661812
0.000408396579
0.000410182317
0.00041197536
0.000413775737
0.000415583474
0.000417398599
0.000419221142
0.000421051128
0.000422888586
0.000424733546
0.000426586033
0.000428446078
0.000430313708
0.000432188952
0.000434071838
0.000435962395
0.000437860653
0.000439766639
0.000441680382
0.000443601913
0.00044553126
0.000447468452
0.000449413519
0.00045136649
0.000453327394
0.000455296262
0.000457273123
0.000459258008
0.000461250945
0.000463251965
0.000465261099
0.000467278376
0.000469303827
0.000471337482
0.000473379373
0.000475429529
0.000477487981
0.000479554761
0.000481629899
0.000483713427
0.000485805375
0.000487905775
0.000490014658
0.000492132056
0.000494258001
0.000496392524
0.000498535656
0.000500687431
0.000502847879
0.000505017034
0.000507194927
0.000509381591
0.000511577058
0.00051378136
0.000515994531
0.000518216604
0.00052044761
0.000522687584
0.000524936557
0.000527194565
0.000529461639
0.000531737813
0.000534023121
0.000536317596
0.000538621273
0.000540934185
0.000543256366
0.00054558785
0.000547928672
0.000550278865
0.000552638465
0.000555007506
0.000557386022
0.000559774048
0.00056217162
0.000564578772
0.000566995539
0.000569421957
0.000571858061
0.000574303886
0.000576759468
0.000579224843
0.000581700047
0.000584185115
0.000586680084
0.000589184989
0.000591699868
0.000594224756
0.00059675969
0.000599304707
0.000601859844
0.000604425136
0.000607000622
0.000609586339
0.000612182324
0.000614788613
0.000617405246
0.000620032258
0.000622669689
0.000625317575
0.000627975956
0.000630644868
0.000633324351
0.000636014442
0.00063871518
0.000641426604
0.000644148752
0.000646881664
0.000649625378
0.000652379933
0.000655145369
0.000657921725
0.00066070904
0.000663507354
0.000666316707
0.000669137139
0.000671968689
0.000674811398
0.000677665307
0.000680530454
0.000683406882
0.00068629463
0.000689193739
0.000692104251
0.000695026206
0.000697959646
0.000700904611
0.000703861143
0.000706829285
0.000709809076
0.00071280056
0.000715803778
0.000718818773
0.000721845586
0.00072488426
0.000727934837
0.000730997361
0.000734071873
0.000737158417
0.000740257036
0.000743367773
0.000746490671
0.000749625774
0.000752773125
0.000755932768
0.000759104747
0.000762289106
0.00076548589
0.000768695141
0.000771916905
0.000775151227
0.00077839815
0.000781657721
0.000784929983
0.000788214983
0.000791512765
0.000794823374
0.000798146857
0.000801483258
0.000804832625
0.000808195002
0.000811570436
0.000814958974
0.000818360661
0.000821775544
0.00082520367
0.000828645086
0.000832099839
0.000835567976
0.000839049544
0.00084254459
0.000846053163
0.00084957531
0.000853111079
0.000856660518
0.000860223675
0.000863800599
0.000867391338
0.00087099594
0.000874614455
0.000878246931
0.000881893418
0.000885553965
0.00088922862
0.000892917435
0.000896620458
0.000900337739
0.000904069329
0.000907815277
0.000911575634
0.000915350451
0.000919139777
0.000922943665
0.000926762164
0.000930595326
0.000934443202
0.000938305843
0.000942183302
0.00094607563
0.000949982879
0.0009539051
0.000957842347
0.000961794671
0.000965762126
0.000969744763
0.000973742636
0.000977755797
0.0009817843
0.000985828199
0.000989887546
0.000993962396
0.000998052802
0.00100215882
0.0010062805
0.0010104179
0.00101457107
0.00101874007
0.00102292496
0.00102712578
0.0010313426
0.00103557546
0.00103982443
0.00104408955
0.0010483709
0.00105266851
0.00105698245
0.00106131278
0.00106565955
0.00107002281
0.00107440263
0.00107879906
0.00108321216
0.00108764198
0.00109208859
0.00109655204
0.00110103238
0.00110552969
0.00111004401
0.0011145754
0.00111912393
0.00112368965
0.00112827261
0.00113287289
0.00113749054
0.00114212561
0.00114677817
0.00115144829
0.001156136
0.00116084139
0.0011655645
0.00117030541
0.00117506416
0.00117984083
0.00118463546
0.00118944813
0.0011942789
0.00119912782
0.00120399496
0.00120888037
0.00121378414
0.0012187063
0.00122364694
0.0012286061
0.00123358386
0.00123858027
0.00124359541
0.00124862932
0.00125368209
0.00125875376
0.00126384442
0.0012689541
0.0012740829
0.00127923086
0.00128439806
0.00128958455
0.00129479041
0.00130001569
0.00130526048
0.00131052482
0.00131580879
0.00132111245
0.00132643587
0.00133177912
0.00133714226
0.00134252535
0.00134792848
0.0013533517
0.00135879508
0.00136425869
0.0013697426
0.00137524688
0.00138077159
0.0013863168
0.00139188258
0.001397469
0.00140307614
0.00140870405
0.00141435281
0.00142002249
0.00142571316
0.00143142488
0.00143715774
0.00144291179
0.00144868712
0.00145448378
0.00146030186
0.00146614143
0.00147200254
0.00147788529
0.00148378974
0.00148971596
0.00149566402
0.001501634
0.00150762597
0.00151364
0.00151967617
0.00152573454
0.00153181521
0.00153791823
0.00154404368
0.00155019163
0.00155636217
0.00156255536
0.00156877129
0.00157501002
0.00158127163
0.00158755619
0.00159386379
0.0016001945
0.00160654839
0.00161292555
0.00161932604
0.00162574995
0.00163219735
0.00163866832
0.00164516293
0.00165168128
0.00165822342
0.00166478945
0.00167137944
0.00167799346
0.00168463161
0.00169129395
0.00169798057
0.00170469154
0.00171142695
0.00171818687
0.0017249714
0.00173178059
0.00173861455
0.00174547334
0.00175235706
0.00175926577
0.00176619957
0.00177315854
0.00178014275
0.00178715229
0.00179418724
0.00180124768
0.00180833371
0.00181544539
0.00182258282
0.00182974608
0.00183693525
0.00184415042
0.00185139166
0.00185865908
0.00186595274
0.00187327274
0.00188061916
0.00188799209
0.00189539162
0.00190281782
0.00191027078
0.0019177506
0.00192525736
0.00193279114
0.00194035204
0.00194794013
0.00195555552
0.00196319828
0.00197086851
0.00197856629
0.00198629171
0.00199404487
0.00200182584
0.00200963473
0.00201747161
0.00202533659
0.00203322975
0.00204115117
0.00204910096
0.0020570792
0.00206508599
0.00207312141
0.00208118556
0.00208927852
0.0020974004
0.00210555129
0.00211373127
0.00212194044
0.00213017889
0.00213844672
0.00214674402
0.00215507089
0.00216342741
0.00217181369
0.00218022981
0.00218867588
0.00219715199
0.00220565824
0.00221419471
0.00222276151
0.00223135873
0.00223998647
0.00224864483
0.0022573339
0.00226605378
0.00227480458
0.00228358637
0.00229239928
0.00230124338
0.00231011879
0.0023190256
0.00232796391
0.00233693382
0.00234593543
0.00235496884
0.00236403415
0.00237313146
0.00238226087
0.00239142249
0.00240061641
0.00240984274
0.00241910157
0.00242839302
0.00243771718
0.00244707415
0.00245646404
0.00246588696
0.002475343
0.00248483227
0.00249435487
0.00250391092
0.0025135005
0.00252312374
0.00253278073
0.00254247157
0.00255219638
0.00256195527
0.00257174833
0.00258157567
0.00259143741
0.00260133364
0.00261126448
0.00262123004
0.00263123041
0.00264126572
0.00265133606
0.00266144156
0.00267158231
0.00268175842
0.00269197002
0.0027022172
0.00271250008
0.00272281876
0.00273317337
0.002743564
0.00275399078
0.00276445381
0.0027749532
0.00278548908
0.00279606154
0.00280667071
0.00281731669
0.00282799961
0.00283871957
0.00284947669
0.00286027109
0.00287110287
0.00288197216
0.00289287906
0.0029038237
0.00291480619
0.00292582665
0.00293688519
0.00294798193
0.00295911699
0.00297029048
0.00298150253
0.00299275324
0.00300404275
0.00301537116
0.00302673861
0.0030381452
0.00304959105
0.00306107629
0.00307260104
0.00308416541
0.00309576954
0.00310741353
0.00311909751
0.0031308216
0.00314258593
0.00315439062
0.00316623578
0.00317812155
0.00319004804
0.00320201539
0.0032140237
0.00322607312
0.00323816375
0.00325029574
0.0032624692
0.00327468425
0.00328694103
0.00329923966
0.00331158027
0.00332396298
0.00333638792
0.00334885522
0.00336136501
0.00337391741
0.00338651256
0.00339915057
0.00341183159
0.00342455573
0.00343732314
0.00345013394
0.00346298825
0.00347588622
0.00348882797
0.00350181363
0.00351484334
0.00352791722
0.00354103542
0.00355419806
0.00356740527
0.00358065719
0.00359395395
0.00360729569
0.00362068254
0.00363411464
0.00364759211
0.0036611151
0.00367468375
0.00368829818
0.00370195853
0.00371566494
0.00372941755
0.0037432165
0.00375706192
0.00377095395
0.00378489273
0.00379887839
0.00381291109
0.00382699095
0.00384111811
0.00385529272
0.00386951492
0.00388378485
0.00389810264
0.00391246844
0.0039268824
0.00394134464
0.00395585533
0.00397041459
0.00398502258
0.00399967943
0.00401438529
0.00402914031
0.00404394462
0.00405879838
0.00407370173
0.00408865481
0.00410365777
0.00411871076
0.00413381392
0.0041489674
0.00416417135
0.00417942592
0.00419473125
0.00421008749
0.0042254948
0.00424095331
0.00425646319
0.00427202457
0.00428763762
0.00430330248
0.00431901929
0.00433478823
0.00435060942
0.00436648303
0.00438240922
0.00439838812
0.0044144199
0.00443050471
0.0044466427
0.00446283403
0.00447907886
0.00449537732
0.00451172959
0.00452813582
0.00454459616
0.00456111078
0.00457767982
0.00459430344
0.00461098181
0.00462771507
0.0046445034
0.00466134694
0.00467824586
0.00469520031
0.00471221046
0.00472927647
0.00474639849
0.00476357668
0.00478081122
0.00479810226
0.00481544996
0.00483285448
0.00485031599
0.00486783465
0.00488541063
0.00490304408
0.00492073518
0.00493848409
0.00495629096
0.00497415598
0.0049920793
0.00501006109
0.00502810151
0.00504620074
0.00506435894
0.00508257628
0.00510085293
0.00511918905
0.00513758482
0.0051560404
0.00517455597
0.00519313169
0.00521176774
0.00523046428
0.00524922149
0.00526803953
0.00528691859
0.00530585883
0.00532486043
0.00534392355
0.00536304838
0.00538223509
0.00540148385
0.00542079483
0.00544016822
0.00545960418
0.0054791029
0.00549866454
0.0055182893
0.00553797733
0.00555772883
0.00557754397
0.00559742293
0.00561736588
0.00563737301
0.0056574445
0.00567758052
0.00569778126
0.0057180469
0.00573837761
0.00575877359
0.005779235
0.00579976205
0.0058203549
0.00584101374
0.00586173876
0.00588253013
0.00590338805
0.0059243127
0.00594530426
0.00596636292
0.00598748887
0.00600868229
0.00602994337
0.0060512723
0.00607266926
0.00609413444
0.00611566804
0.00613727024
0.00615894122
0.00618068119
0.00620249033
0.00622436883
0.00624631688
0.00626833468
0.00629042241
0.00631258027
0.00633480846
0.00635710715
0.00637947656
0.00640191687
0.00642442828
0.00644701097
0.00646966516
0.00649239103
0.00651518878
0.0065380586
0.0065610007
0.00658401527
0.00660710251
0.00663026262
0.00665349579
0.00667680223
0.00670018213
0.00672363569
0.00674716313
0.00677076463
0.00679444039
0.00681819063
0.00684201554
0.00686591533
0.00688989019
0.00691394033
0.00693806596
0.00696226728
0.00698654449
0.0070108978
0.00703532742
0.00705983355
0.0070844164
0.00710907618
0.00713381309
0.00715862734
0.00718351913
0.00720848869
0.00723353621
0.00725866192
0.007283866
0.00730914869
0.00733451018
0.0073599507
0.00738547045
0.00741106964
0.00743674849
0.00746250721
0.00748834601
0.00751426511
0.00754026473
0.00756634507
0.00759250636
0.00761874881
0.00764507263
0.00767147804
0.00769796527
0.00772453452
0.00775118601
0.00777791998
0.00780473662
0.00783163617
0.00785861884
0.00788568485
0.00791283443
0.0079400678
0.00796738517
0.00799478677
0.00802227282
0.00804984355
0.00807749918
0.00810523993
0.00813306603
0.0081609777
0.00818897517
0.00821705866
0.00824522841
0.00827348463
0.00830182755
0.00833025741
0.00835877443
0.00838737884
0.00841607086
0.00844485074
0.00847371869
0.00850267495
0.00853171975
0.00856085332
0.00859007589
0.0086193877
0.00864878898
0.00867827996
0.00870786087
0.00873753195
0.00876729344
0.00879714556
0.00882708856
0.00885712268
0.00888724814
0.00891746518
0.00894777405
0.00897817497
0.0090086682
0.00903925396
0.0090699325
0.00910070406
0.00913156887
0.00916252719
0.00919357924
0.00922472527
0.00925596553
0.00928730025
0.00931872969
0.00935025407
0.00938187366
0.00941358868
0.00944539939
0.00947730604
0.00950930886
0.00954140811
0.00957360403
0.00960589687
0.00963828688
0.00967077431
0.0097033594
0.00973604241
0.00976882358
0.00980170316
0.00983468141
0.00986775858
0.00990093492
0.00993421068
0.00996758611
0.0100010615
0.010034637
0.010068313
0.0101020897
0.0101359673
0.0101699461
0.0102040264
0.0102382083
0.0102724923
0.0103068785
0.0103413672
0.0103759586
0.010410653
0.0104454507
0.0104803519
0.0105153569
0.0105504659
0.0105856793
0.0106209972
0.01065642
0.0106919478
0.010727581
0.0107633199
0.0107991646
0.0108351155
0.0108711727
0.0109073367
0.0109436076
0.0109799858
0.0110164714
0.0110530648
0.0110897662
0.0111265759
0.0111634942
0.0112005212
0.0112376574
0.011274903
0.0113122582
0.0113497233
0.0113872986
0.0114249844
0.0114627809
0.0115006884
0.0115387071
0.0115768375
0.0116150797
0.0116534339
0.0116919006
0.0117304799
0.0117691722
0.0118079777
0.0118468967
0.0118859294
0.0119250763
0.0119643374
0.0120037132
0.0120432038
0.0120828097
0.0121225309
0.012162368
0.012202321
0.0122423904
0.0122825764
0.0123228792
0.0123632992
0.0124038366
0.0124444918
0.012485265
0.0125261565
0.0125671666
0.0126082956
0.0126495437
0.0126909113
0.0127323987
0.0127740061
0.0128157338
0.0128575822
0.0128995514
0.0129416419
0.0129838539
0.0130261876
0.0130686435
0.0131112217
0.0131539226
0.0131967464
0.0132396935
0.0132827642
0.0133259588
0.0133692774
0.0134127206
0.0134562885
0.0134999814
0.0135437997
0.0135877436
0.0136318135
0.0136760096
0.0137203323
0.0137647819
0.0138093585
0.0138540627
0.0138988946
0.0139438545
0.0139889429
0.0140341599
0.0140795059
0.0141249811
0.014170586
0.0142163208
0.0142621857
0.0143081812
0.0143543075
0.0144005649
0.0144469538
0.0144934744
0.0145401271
0.0145869121
0.0146338299
0.0146808806
0.0147280646
0.0147753823
0.0148228339
0.0148704197
0.0149181402
0.0149659954
0.0150139859
0.0150621119
0.0151103737
0.0151587717
0.0152073061
0.0152559773
0.0153047856
0.0153537314
0.0154028148
0.0154520364
0.0155013963
0.0155508949
0.0156005325
0.0156503095
0.0157002261
0.0157502828
0.0158004797
0.0158508173
0.0159012959
0.0159519157
0.0160026772
0.0160535806
0.0161046263
0.0161558146
0.0162071458
0.0162586203
0.0163102383
0.0163620003
0.0164139065
0.0164659573
0.016518153
0.0165704939
0.0166229804
0.0166756128
0.0167283914
0.0167813167
0.0168343888
0.0168876081
0.0169409751
0.0169944899
0.017048153
0.0171019647
0.0171559253
0.0172100352
0.0172642946
0.017318704
0.0173732637
0.017427974
0.0174828352
0.0175378478
0.017593012
0.0176483281
0.0177037966
0.0177594178
0.017815192
0.0178711195
0.0179272008
0.0179834361
0.0180398257
0.0180963702
0.0181530697
0.0182099246
0.0182669353
0.0183241022
0.0183814255
0.0184389056
0.018496543
0.0185543378
0.0186122906
0.0186704015
0.0187286711
0.0187870996
0.0188456873
0.0189044347
0.0189633422
0.0190224099
0.0190816384
0.0191410279
0.0192005788
0.0192602916
0.0193201664
0.0193802037
0.0194404039
0.0195007673
0.0195612943
0.0196219852
0.0196828403
0.0197438601
0.0198050449
0.0198663951
0.019927911
0.019989593
0.0200514415
0.0201134568
0.0201756393
0.0202379893
0.0203005072
0.0203631935
0.0204260483
0.0204890722
0.0205522655
0.0206156285
0.0206791616
0.0207428652
0.0208067397
0.0208707854
0.0209350027
0.020999392
0.0210639536
0.021128688
0.0211935954
0.0212586763
0.021323931
0.0213893599
0.0214549634
0.0215207418
0.0215866956
0.0216528251
0.0217191306
0.0217856127
0.0218522716
0.0219191076
0.0219861213
0.022053313
0.022120683
0.0221882318
0.0222559596
0.022323867
0.0223919542
0.0224602217
0.0225286699
0.022597299
0.0226661096
0.022735102
0.0228042766
0.0228736337
0.0229431738
0.0230128972
0.0230828043
0.0231528956
0.0232231713
0.0232936319
0.0233642778
0.0234351094
0.023506127
0.0235773311
0.023648722
0.0237203002
0.0237920659
0.0238640197
0.0239361619
0.0240084928
0.024081013
0.0241537227
0.0242266224
0.0242997125
0.0243729934
0.0244464654
0.024520129
0.0245939846
0.0246680325
0.0247422732
0.024816707
0.0248913344
0.0249661558
0.0250411714
0.0251163819
0.0251917875
0.0252673887
0.0253431858
0.0254191793
0.0254953695
0.0255717569
0.0256483419
0.0257251249
0.0258021063
0.0258792864
0.0259566658
0.0260342447
0.0261120236
0.026190003
0.0262681832
0.0263465646
0.0264251477
0.0265039328
0.0265829203
0.0266621108
0.0267415045
0.0268211019
0.0269009034
0.0269809095
0.0270611204
0.0271415367
0.0272221588
0.027302987
0.0273840218
0.0274652637
0.0275467129
0.02762837
0.0277102353
0.0277923092
0.0278745923
0.0279570849
0.0280397873
0.0281227002
0.0282058237
0.0282891585
0.0283727048
0.0284564632
0.028540434
0.0286246177
0.0287090146
0.0287936253
0.0288784501
0.0289634894
0.0290487437
0.0291342134
0.029219899
0.0293058008
0.0293919192
0.0294782548
0.0295648079
0.029651579
0.0297385684
0.0298257766
0.0299132041
0.0300008513
0.0300887186
0.0301768064
0.0302651151
0.0303536453
0.0304423972
0.0305313715
0.0306205684
0.0307099884
0.030799632
0.0308894995
0.0309795915
0.0310699083
0.0311604505
0.0312512183
0.0313422123
0.0314334329
0.0315248805
0.0316165556
0.0317084586
0.03180059
0.0318929501
0.0319855395
0.0320783585
0.0321714076
0.0322646873
0.0323581979
0.03245194
0.0325459139
0.0326401201
0.0327345591
0.0328292312
0.032924137
0.0330192769
0.0331146513
0.0332102607
0.0333061054
0.033402186
0.033498503
0.0335950566
0.0336918475
0.033788876
0.0338861426
0.0339836477
0.0340813918
0.0341793753
0.0342775987
0.0343760625
0.034474767
0.0345737127
0.0346729001
0.0347723297
0.0348720018
0.034971917
0.0350720757
0.0351724783
0.0352731252
0.0353740171
0.0354751542
0.0355765371
0.0356781662
0.0357800419
0.0358821648
0.0359845352
0.0360871537
0.0361900207
0.0362931366
0.0363965019
0.036500117
0.0366039825
0.0367080988
0.0368124662
0.0369170854
0.0370219568
0.0371270807
0.0372324577
0.0373380883
0.0374439728
0.0375501118
0.0376565057
0.037763155
0.0378700602
0.0379772216
0.0380846398
0.0381923153
0.0383002484
0.0384084397
0.0385168897
0.0386255987
0.0387345673
0.0388437959
0.038953285
0.0390630351
0.0391730466
0.0392833199
0.0393938557
0.0395046542
0.0396157161
0.0397270417
0.0398386316
0.0399504861
0.0400626058
0.0401749912
0.0402876427
0.0404005608
0.0405137459
0.0406271986
0.0407409192
0.0408549084
0.0409691664
0.0410836939
0.0411984913
0.0413135591
0.0414288976
0.0415445075
0.0416603892
0.0417765432
0.0418929699
0.0420096698
0.0421266433
0.0422438911
0.0423614135
0.042479211
0.0425972841
0.0427156333
0.042834259
0.0429531618
0.0430723421
0.0431918003
0.043311537
0.0434315527
0.0435518478
0.0436724228
0.0437932782
0.0439144144
0.044035832
0.0441575315
0.0442795132
0.0444017777
0.0445243255
0.0446471571
0.0447702728
0.0448936734
0.0450173591
0.0451413305
0.045265588
0.0453901323
0.0455149636
0.0456400826
0.0457654897
0.0458911854
0.0460171702
0.0461434446
0.046270009
0.0463968639
0.0465240099
0.0466514473
0.0467791768
0.0469071988
0.0470355137
0.0471641221
0.0472930245
0.0474222212
0.047551713
0.0476815001
0.0478115831
0.0479419625
0.0480726389
0.0482036125
0.0483348841
0.048466454
0.0485983228
0.0487304908
0.0488629588
0.048995727
0.049128796
0.0492621664
0.0493958385
0.049529813
0.0496640902
0.0497986707
0.0499335549
0.0500687434
0.0502042367
0.0503400352
0.0504761394
0.0506125499
0.0507492671
0.0508862915
0.0510236236
0.051161264
0.051299213
0.0514374713
0.0515760392
0.0517149174
0.0518541062
0.0519936062
0.0521334179
0.0522735418
0.0524139784
0.0525547281
0.0526957915
0.0528371691
0.0529788613
0.0531208687
0.0532631917
0.0534058309
0.0535487868
0.0536920598
0.0538356504
0.0539795592
0.0541237867
0.0542683333
0.0544131996
0.054558386
0.054703893
0.0548497212
0.054995871
0.055142343
0.0552891376
0.0554362554
0.0555836968
0.0557314624
0.0558795526
0.056027968
0.056176709
0.0563257761
0.0564751699
0.0566248909
0.0567749395
0.0569253163
0.0570760217
0.0572270563
0.0573784205
0.0575301149
0.05768214
0.0578344963
0.0579871842
0.0581402043
0.058293557
0.058447243
0.0586012626
0.0587556164
0.0589103049
0.0590653286
0.059220688
0.0593763835
0.0595324158
0.0596887853
0.0598454925
0.0600025379
0.060159922
0.0603176453
0.0604757084
0.0606341117
0.0607928557
0.0609519409
0.0611113679
0.0612711372
0.0614312491
0.0615917044
0.0617525034
0.0619136466
0.0620751346
0.0622369679
0.062399147
0.0625616723
0.0627245445
0.0628877639
0.0630513311
0.0632152466
0.063379511
0.0635441246
0.0637090881
0.0638744018
0.0640400664
0.0642060823
0.0643724501
0.0645391702
0.0647062432
0.0648736695
0.0650414496
0.0652095841
0.0653780735
0.0655469183
0.0657161189
0.0658856759
0.0660555899
0.0662258612
0.0663964904
0.066567478
0.0667388245
0.0669105304
0.0670825962
0.0672550225
0.0674278097
0.0676009583
0.0677744689
0.0679483419
0.0681225779
0.0682971773
0.0684721407
0.0686474685
0.0688231613
0.0689992196
0.0691756439
0.0693524347
0.0695295924
0.0697071176
0.0698850109
0.0700632726
0.0702419033
0.0704209036
0.0706002738
0.0707800146
0.0709601264
0.0711406098
0.0713214651
0.071502693
0.071684294
0.0718662685
0.072048617
0.0722313401
0.0724144382
0.0725979119
0.0727817616
0.072965988
0.0731505913
0.0733355723
0.0735209313
0.0737066689
0.0738927856
0.0740792818
0.0742661582
0.0744534151
0.0746410531
0.0748290727
0.0750174744
0.0752062587
0.0753954261
0.075584977
0.0757749121
0.0759652318
0.0761559365
0.0763470269
0.0765385033
0.0767303664
0.0769226166
0.0771152543
0.0773082802
0.0775016947
0.0776954982
0.0778896914
0.0780842747
0.0782792485
0.0784746135
0.07867037
0.0788665187
0.0790630599
0.0792599943
0.0794573222
0.0796550442
0.0798531608
0.0800516725
0.0802505798
0.0804498831
0.080649583
0.08084968
0.0810501745
0.0812510671
0.0814523583
0.0816540485
0.0818561383
0.0820586281
0.0822615184
0.0824648098
0.0826685027
0.0828725977
0.0830770951
0.0832819956
0.0834872995
0.0836930075
0.0838991199
0.0841056373
0.0843125602
0.0845198891
0.0847276244
0.0849357667
0.0851443164
0.085353274
0.0855626401
0.0857724151
0.0859825994
0.0861931937
0.0864041984
0.0866156139
0.0868274407
0.0870396795
0.0872523305
0.0874653944
0.0876788716
0.0878927626
0.0881070679
0.0883217879
0.0885369232
0.0887524743
0.0889684415
0.0891848255
0.0894016267
0.0896188456
0.0898364826
0.0900545383
0.0902730131
0.0904919076
0.0907112221
0.0909309573
0.0911511135
0.0913716912
0.091592691
0.0918141132
0.0920359585
0.0922582272
0.0924809199
0.092704037
0.0929275791
0.0931515465
0.0933759397
0.0936007593
0.0938260058
0.0940516795
0.094277781
0.0945043107
0.0947312692
0.0949586569
0.0951864742
0.0954147217
0.0956433998
0.095872509
0.0961020498
0.0963320226
0.0965624279
0.0967932662
0.0970245379
0.0972562436
0.0974883837
0.0977209586
